time[s],motor_trq[Nm],motor_volt[V],motor_current[A]
0,1,2,0
0.001,1,2,3
0.002,2,4,6
0.003,3,6,9
0.004,4,8,12
0.005,5,10,15
0.006,6,12,18
0.007,7,14,21
0.008,8,16,24
0.009000000000000001,9,18,27
0.010000000000000002,10,20,30
0.011000000000000003,11,22,33
0.012000000000000004,12,24,36
0.013000000000000005,13,26,39
0.014000000000000005,14,28,42
0.015000000000000006,15,30,45
0.016000000000000007,16,32,48
0.017000000000000008,17,34,51
0.01800000000000001,18,36,54
0.01900000000000001,19,38,57
0.02000000000000001,20,40,60
0.02100000000000001,21,42,63
0.022000000000000013,22,44,66
0.023000000000000013,23,46,69
0.024000000000000014,24,48,72
0.025000000000000015,25,50,75
0.026000000000000016,26,52,78
0.027000000000000017,27,54,81
0.028000000000000018,28,56,84
0.02900000000000002,29,58,87
0.03000000000000002,30,60,90
0.03100000000000002,31,62,93
0.03200000000000002,32,64,96
0.03300000000000002,33,66,99
0.03400000000000002,34,68,102
0.035000000000000024,35,70,105
0.036000000000000025,36,72,108
0.037000000000000026,37,74,111
0.03800000000000003,38,76,114
0.03900000000000003,39,78,117
0.04000000000000003,40,80,120
0.04100000000000003,41,82,123
0.04200000000000003,42,84,126
0.04300000000000003,43,86,129
0.04400000000000003,44,88,132
0.04500000000000003,45,90,135
0.046000000000000034,46,92,138
0.047000000000000035,47,94,141
0.048000000000000036,48,96,144
0.04900000000000004,49,98,147
0.05000000000000004,50,100,150
0.05100000000000004,51,102,153
0.05200000000000004,52,104,156
0.05300000000000004,53,106,159
0.05400000000000004,54,108,162
0.05500000000000004,55,110,165
0.05600000000000004,56,112,168
0.057000000000000044,57,114,171
0.058000000000000045,58,116,174
0.059000000000000045,59,118,177
0.060000000000000046,60,120,180
0.06100000000000005,61,122,183
0.06200000000000005,62,124,186
0.06300000000000004,63,126,189
0.06400000000000004,64,128,192
0.06500000000000004,65,130,195
0.06600000000000004,66,132,198
0.06700000000000005,67,134,201
0.06800000000000005,68,136,204
0.06900000000000005,69,138,207
0.07000000000000005,70,140,210
0.07100000000000005,71,142,213
0.07200000000000005,72,144,216
0.07300000000000005,73,146,219
0.07400000000000005,74,148,222
0.07500000000000005,75,150,225
0.07600000000000005,76,152,228
0.07700000000000005,77,154,231
0.07800000000000006,78,156,234
0.07900000000000006,79,158,237
0.08000000000000006,80,160,240
0.08100000000000006,81,162,243
0.08200000000000006,82,164,246
0.08300000000000006,83,166,249
0.08400000000000006,84,168,252
0.08500000000000006,85,170,255
0.08600000000000006,86,172,258
0.08700000000000006,87,174,261
0.08800000000000006,88,176,264
0.08900000000000007,89,178,267
0.09000000000000007,90,180,270
0.09100000000000007,91,182,273
0.09200000000000007,92,184,276
0.09300000000000007,93,186,279
0.09400000000000007,94,188,282
0.09500000000000007,95,190,285
0.09600000000000007,96,192,288
0.09700000000000007,97,194,291
0.09800000000000007,98,196,294
0.09900000000000007,99,198,297
0.10000000000000007,100,200,300
0.10100000000000008,101,202,303
0.10200000000000008,102,204,306
0.10300000000000008,103,206,309
0.10400000000000008,104,208,312
0.10500000000000008,105,210,315
0.10600000000000008,106,212,318
0.10700000000000008,107,214,321
0.10800000000000008,108,216,324
0.10900000000000008,109,218,327
0.11000000000000008,110,220,330
0.11100000000000008,111,222,333
0.11200000000000009,112,224,336
0.11300000000000009,113,226,339
0.11400000000000009,114,228,342
0.11500000000000009,115,230,345
0.11600000000000009,116,232,348
0.11700000000000009,117,234,351
0.11800000000000009,118,236,354
0.11900000000000009,119,238,357
0.12000000000000009,120,240,360
0.1210000000000001,121,242,363
0.1220000000000001,122,244,366
0.1230000000000001,123,246,369
0.1240000000000001,124,248,372
0.12500000000000008,125,250,375
0.12600000000000008,126,252,378
0.12700000000000009,127,254,381
0.12800000000000009,128,256,384
0.1290000000000001,129,258,387
0.1300000000000001,130,260,390
0.1310000000000001,131,262,393
0.1320000000000001,132,264,396
0.1330000000000001,133,266,399
0.1340000000000001,134,268,402
0.1350000000000001,135,270,405
0.1360000000000001,136,272,408
0.1370000000000001,137,274,411
0.1380000000000001,138,276,414
0.1390000000000001,139,278,417
0.1400000000000001,140,280,420
0.1410000000000001,141,282,423
0.1420000000000001,142,284,426
0.1430000000000001,143,286,429
0.1440000000000001,144,288,432
0.1450000000000001,145,290,435
0.1460000000000001,146,292,438
0.1470000000000001,147,294,441
0.1480000000000001,148,296,444
0.1490000000000001,149,298,447
0.1500000000000001,150,300,450
0.1510000000000001,151,302,453
0.1520000000000001,152,304,456
0.1530000000000001,153,306,459
0.1540000000000001,154,308,462
0.1550000000000001,155,310,465
0.1560000000000001,156,312,468
0.1570000000000001,157,314,471
0.1580000000000001,158,316,474
0.1590000000000001,159,318,477
0.16000000000000011,160,320,480
0.16100000000000012,161,322,483
0.16200000000000012,162,324,486
0.16300000000000012,163,326,489
0.16400000000000012,164,328,492
0.16500000000000012,165,330,495
0.16600000000000012,166,332,498
0.16700000000000012,167,334,501
0.16800000000000012,168,336,504
0.16900000000000012,169,338,507
0.17000000000000012,170,340,510
0.17100000000000012,171,342,513
0.17200000000000013,172,344,516
0.17300000000000013,173,346,519
0.17400000000000013,174,348,522
0.17500000000000013,175,350,525
0.17600000000000013,176,352,528
0.17700000000000013,177,354,531
0.17800000000000013,178,356,534
0.17900000000000013,179,358,537
0.18000000000000013,180,360,540
0.18100000000000013,181,362,543
0.18200000000000013,182,364,546
0.18300000000000013,183,366,549
0.18400000000000014,184,368,552
0.18500000000000014,185,370,555
0.18600000000000014,186,372,558
0.18700000000000014,187,374,561
0.18800000000000014,188,376,564
0.18900000000000014,189,378,567
0.19000000000000014,190,380,570
0.19100000000000014,191,382,573
0.19200000000000014,192,384,576
0.19300000000000014,193,386,579
0.19400000000000014,194,388,582
0.19500000000000015,195,390,585
0.19600000000000015,196,392,588
0.19700000000000015,197,394,591
0.19800000000000015,198,396,594
0.19900000000000015,199,398,597
0.20000000000000015,200,400,600
0.20100000000000015,201,402,603
0.20200000000000015,202,404,606
0.20300000000000015,203,406,609
0.20400000000000015,204,408,612
0.20500000000000015,205,410,615
0.20600000000000016,206,412,618
0.20700000000000016,207,414,621
0.20800000000000016,208,416,624
0.20900000000000016,209,418,627
0.21000000000000016,210,420,630
0.21100000000000016,211,422,633
0.21200000000000016,212,424,636
0.21300000000000016,213,426,639
0.21400000000000016,214,428,642
0.21500000000000016,215,430,645
0.21600000000000016,216,432,648
0.21700000000000016,217,434,651
0.21800000000000017,218,436,654
0.21900000000000017,219,438,657
0.22000000000000017,220,440,660
0.22100000000000017,221,442,663
0.22200000000000017,222,444,666
0.22300000000000017,223,446,669
0.22400000000000017,224,448,672
0.22500000000000017,225,450,675
0.22600000000000017,226,452,678
0.22700000000000017,227,454,681
0.22800000000000017,228,456,684
0.22900000000000018,229,458,687
0.23000000000000018,230,460,690
0.23100000000000018,231,462,693
0.23200000000000018,232,464,696
0.23300000000000018,233,466,699
0.23400000000000018,234,468,702
0.23500000000000018,235,470,705
0.23600000000000018,236,472,708
0.23700000000000018,237,474,711
0.23800000000000018,238,476,714
0.23900000000000018,239,478,717
0.24000000000000019,240,480,720
0.2410000000000002,241,482,723
0.2420000000000002,242,484,726
0.2430000000000002,243,486,729
0.2440000000000002,244,488,732
0.2450000000000002,245,490,735
0.2460000000000002,246,492,738
0.2470000000000002,247,494,741
0.2480000000000002,248,496,744
0.2490000000000002,249,498,747
0.25000000000000017,250,500,750
0.25100000000000017,251,502,753
0.25200000000000017,252,504,756
0.25300000000000017,253,506,759
0.25400000000000017,254,508,762
0.25500000000000017,255,510,765
0.25600000000000017,256,512,768
0.2570000000000002,257,514,771
0.2580000000000002,258,516,774
0.2590000000000002,259,518,777
0.2600000000000002,260,520,780
0.2610000000000002,261,522,783
0.2620000000000002,262,524,786
0.2630000000000002,263,526,789
0.2640000000000002,264,528,792
0.2650000000000002,265,530,795
0.2660000000000002,266,532,798
0.2670000000000002,267,534,801
0.2680000000000002,268,536,804
0.2690000000000002,269,538,807
0.2700000000000002,270,540,810
0.2710000000000002,271,542,813
0.2720000000000002,272,544,816
0.2730000000000002,273,546,819
0.2740000000000002,274,548,822
0.2750000000000002,275,550,825
0.2760000000000002,276,552,828
0.2770000000000002,277,554,831
0.2780000000000002,278,556,834
0.2790000000000002,279,558,837
0.2800000000000002,280,560,840
0.2810000000000002,281,562,843
0.2820000000000002,282,564,846
0.2830000000000002,283,566,849
0.2840000000000002,284,568,852
0.2850000000000002,285,570,855
0.2860000000000002,286,572,858
0.2870000000000002,287,574,861
0.2880000000000002,288,576,864
0.2890000000000002,289,578,867
0.2900000000000002,290,580,870
0.2910000000000002,291,582,873
0.2920000000000002,292,584,876
0.2930000000000002,293,586,879
0.2940000000000002,294,588,882
0.2950000000000002,295,590,885
0.2960000000000002,296,592,888
0.2970000000000002,297,594,891
0.2980000000000002,298,596,894
0.2990000000000002,299,598,897
0.3000000000000002,300,600,900
0.3010000000000002,301,602,903
0.3020000000000002,302,604,906
0.3030000000000002,303,606,909
0.3040000000000002,304,608,912
0.3050000000000002,305,610,915
0.3060000000000002,306,612,918
0.3070000000000002,307,614,921
0.3080000000000002,308,616,924
0.3090000000000002,309,618,927
0.3100000000000002,310,620,930
0.3110000000000002,311,622,933
0.3120000000000002,312,624,936
0.3130000000000002,313,626,939
0.3140000000000002,314,628,942
0.3150000000000002,315,630,945
0.3160000000000002,316,632,948
0.3170000000000002,317,634,951
0.3180000000000002,318,636,954
0.31900000000000023,319,638,957
0.32000000000000023,320,640,960
0.32100000000000023,321,642,963
0.32200000000000023,322,644,966
0.32300000000000023,323,646,969
0.32400000000000023,324,648,972
0.32500000000000023,325,650,975
0.32600000000000023,326,652,978
0.32700000000000023,327,654,981
0.32800000000000024,328,656,984
0.32900000000000024,329,658,987
0.33000000000000024,330,660,990
0.33100000000000024,331,662,993
0.33200000000000024,332,664,996
0.33300000000000024,333,666,999
0.33400000000000024,334,668,1002
0.33500000000000024,335,670,1005
0.33600000000000024,336,672,1008
0.33700000000000024,337,674,1011
0.33800000000000024,338,676,1014
0.33900000000000025,339,678,1017
0.34000000000000025,340,680,1020
0.34100000000000025,341,682,1023
0.34200000000000025,342,684,1026
0.34300000000000025,343,686,1029
0.34400000000000025,344,688,1032
0.34500000000000025,345,690,1035
0.34600000000000025,346,692,1038
0.34700000000000025,347,694,1041
0.34800000000000025,348,696,1044
0.34900000000000025,349,698,1047
0.35000000000000026,350,700,1050
0.35100000000000026,351,702,1053
0.35200000000000026,352,704,1056
0.35300000000000026,353,706,1059
0.35400000000000026,354,708,1062
0.35500000000000026,355,710,1065
0.35600000000000026,356,712,1068
0.35700000000000026,357,714,1071
0.35800000000000026,358,716,1074
0.35900000000000026,359,718,1077
0.36000000000000026,360,720,1080
0.36100000000000027,361,722,1083
0.36200000000000027,362,724,1086
0.36300000000000027,363,726,1089
0.36400000000000027,364,728,1092
0.36500000000000027,365,730,1095
0.36600000000000027,366,732,1098
0.36700000000000027,367,734,1101
0.36800000000000027,368,736,1104
0.36900000000000027,369,738,1107
0.3700000000000003,370,740,1110
0.3710000000000003,371,742,1113
0.3720000000000003,372,744,1116
0.3730000000000003,373,746,1119
0.3740000000000003,374,748,1122
0.3750000000000003,375,750,1125
0.3760000000000003,376,752,1128
0.3770000000000003,377,754,1131
0.3780000000000003,378,756,1134
0.3790000000000003,379,758,1137
0.3800000000000003,380,760,1140
0.3810000000000003,381,762,1143
0.3820000000000003,382,764,1146
0.3830000000000003,383,766,1149
0.3840000000000003,384,768,1152
0.3850000000000003,385,770,1155
0.3860000000000003,386,772,1158
0.3870000000000003,387,774,1161
0.3880000000000003,388,776,1164
0.3890000000000003,389,778,1167
0.3900000000000003,390,780,1170
0.3910000000000003,391,782,1173
0.3920000000000003,392,784,1176
0.3930000000000003,393,786,1179
0.3940000000000003,394,788,1182
0.3950000000000003,395,790,1185
0.3960000000000003,396,792,1188
0.3970000000000003,397,794,1191
0.3980000000000003,398,796,1194
0.3990000000000003,399,798,1197
0.4000000000000003,400,800,1200
0.4010000000000003,401,802,1203
0.4020000000000003,402,804,1206
0.4030000000000003,403,806,1209
0.4040000000000003,404,808,1212
0.4050000000000003,405,810,1215
0.4060000000000003,406,812,1218
0.4070000000000003,407,814,1221
0.4080000000000003,408,816,1224
0.4090000000000003,409,818,1227
0.4100000000000003,410,820,1230
0.4110000000000003,411,822,1233
0.4120000000000003,412,824,1236
0.4130000000000003,413,826,1239
0.4140000000000003,414,828,1242
0.4150000000000003,415,830,1245
0.4160000000000003,416,832,1248
0.4170000000000003,417,834,1251
0.4180000000000003,418,836,1254
0.4190000000000003,419,838,1257
0.4200000000000003,420,840,1260
0.4210000000000003,421,842,1263
0.4220000000000003,422,844,1266
0.4230000000000003,423,846,1269
0.4240000000000003,424,848,1272
0.4250000000000003,425,850,1275
0.4260000000000003,426,852,1278
0.4270000000000003,427,854,1281
0.4280000000000003,428,856,1284
0.4290000000000003,429,858,1287
0.4300000000000003,430,860,1290
0.4310000000000003,431,862,1293
0.43200000000000033,432,864,1296
0.43300000000000033,433,866,1299
0.43400000000000033,434,868,1302
0.43500000000000033,435,870,1305
0.43600000000000033,436,872,1308
0.43700000000000033,437,874,1311
0.43800000000000033,438,876,1314
0.43900000000000033,439,878,1317
0.44000000000000034,440,880,1320
0.44100000000000034,441,882,1323
0.44200000000000034,442,884,1326
0.44300000000000034,443,886,1329
0.44400000000000034,444,888,1332
0.44500000000000034,445,890,1335
0.44600000000000034,446,892,1338
0.44700000000000034,447,894,1341
0.44800000000000034,448,896,1344
0.44900000000000034,449,898,1347
0.45000000000000034,450,900,1350
0.45100000000000035,451,902,1353
0.45200000000000035,452,904,1356
0.45300000000000035,453,906,1359
0.45400000000000035,454,908,1362
0.45500000000000035,455,910,1365
0.45600000000000035,456,912,1368
0.45700000000000035,457,914,1371
0.45800000000000035,458,916,1374
0.45900000000000035,459,918,1377
0.46000000000000035,460,920,1380
0.46100000000000035,461,922,1383
0.46200000000000035,462,924,1386
0.46300000000000036,463,926,1389
0.46400000000000036,464,928,1392
0.46500000000000036,465,930,1395
0.46600000000000036,466,932,1398
0.46700000000000036,467,934,1401
0.46800000000000036,468,936,1404
0.46900000000000036,469,938,1407
0.47000000000000036,470,940,1410
0.47100000000000036,471,942,1413
0.47200000000000036,472,944,1416
0.47300000000000036,473,946,1419
0.47400000000000037,474,948,1422
0.47500000000000037,475,950,1425
0.47600000000000037,476,952,1428
0.47700000000000037,477,954,1431
0.47800000000000037,478,956,1434
0.47900000000000037,479,958,1437
0.48000000000000037,480,960,1440
0.48100000000000037,481,962,1443
0.4820000000000004,482,964,1446
0.4830000000000004,483,966,1449
0.4840000000000004,484,968,1452
0.4850000000000004,485,970,1455
0.4860000000000004,486,972,1458
0.4870000000000004,487,974,1461
0.4880000000000004,488,976,1464
0.4890000000000004,489,978,1467
0.4900000000000004,490,980,1470
0.4910000000000004,491,982,1473
0.4920000000000004,492,984,1476
0.4930000000000004,493,986,1479
0.4940000000000004,494,988,1482
0.4950000000000004,495,990,1485
0.4960000000000004,496,992,1488
0.4970000000000004,497,994,1491
0.4980000000000004,498,996,1494
0.4990000000000004,499,998,1497
0.5000000000000003,500,1000,1500
0.5010000000000003,501,1002,1503
0.5020000000000003,502,1004,1506
0.5030000000000003,503,1006,1509
0.5040000000000003,504,1008,1512
0.5050000000000003,505,1010,1515
0.5060000000000003,506,1012,1518
0.5070000000000003,507,1014,1521
0.5080000000000003,508,1016,1524
0.5090000000000003,509,1018,1527
0.5100000000000003,510,1020,1530
0.5110000000000003,511,1022,1533
0.5120000000000003,512,1024,1536
0.5130000000000003,513,1026,1539
0.5140000000000003,514,1028,1542
0.5150000000000003,515,1030,1545
0.5160000000000003,516,1032,1548
0.5170000000000003,517,1034,1551
0.5180000000000003,518,1036,1554
0.5190000000000003,519,1038,1557
0.5200000000000004,520,1040,1560
0.5210000000000004,521,1042,1563
0.5220000000000004,522,1044,1566
0.5230000000000004,523,1046,1569
0.5240000000000004,524,1048,1572
0.5250000000000004,525,1050,1575
0.5260000000000004,526,1052,1578
0.5270000000000004,527,1054,1581
0.5280000000000004,528,1056,1584
0.5290000000000004,529,1058,1587
0.5300000000000004,530,1060,1590
0.5310000000000004,531,1062,1593
0.5320000000000004,532,1064,1596
0.5330000000000004,533,1066,1599
0.5340000000000004,534,1068,1602
0.5350000000000004,535,1070,1605
0.5360000000000004,536,1072,1608
0.5370000000000004,537,1074,1611
0.5380000000000004,538,1076,1614
0.5390000000000004,539,1078,1617
0.5400000000000004,540,1080,1620
0.5410000000000004,541,1082,1623
0.5420000000000004,542,1084,1626
0.5430000000000004,543,1086,1629
0.5440000000000004,544,1088,1632
0.5450000000000004,545,1090,1635
0.5460000000000004,546,1092,1638
0.5470000000000004,547,1094,1641
0.5480000000000004,548,1096,1644
0.5490000000000004,549,1098,1647
0.5500000000000004,550,1100,1650
0.5510000000000004,551,1102,1653
0.5520000000000004,552,1104,1656
0.5530000000000004,553,1106,1659
0.5540000000000004,554,1108,1662
0.5550000000000004,555,1110,1665
0.5560000000000004,556,1112,1668
0.5570000000000004,557,1114,1671
0.5580000000000004,558,1116,1674
0.5590000000000004,559,1118,1677
0.5600000000000004,560,1120,1680
0.5610000000000004,561,1122,1683
0.5620000000000004,562,1124,1686
0.5630000000000004,563,1126,1689
0.5640000000000004,564,1128,1692
0.5650000000000004,565,1130,1695
0.5660000000000004,566,1132,1698
0.5670000000000004,567,1134,1701
0.5680000000000004,568,1136,1704
0.5690000000000004,569,1138,1707
0.5700000000000004,570,1140,1710
0.5710000000000004,571,1142,1713
0.5720000000000004,572,1144,1716
0.5730000000000004,573,1146,1719
0.5740000000000004,574,1148,1722
0.5750000000000004,575,1150,1725
0.5760000000000004,576,1152,1728
0.5770000000000004,577,1154,1731
0.5780000000000004,578,1156,1734
0.5790000000000004,579,1158,1737
0.5800000000000004,580,1160,1740
0.5810000000000004,581,1162,1743
0.5820000000000004,582,1164,1746
0.5830000000000004,583,1166,1749
0.5840000000000004,584,1168,1752
0.5850000000000004,585,1170,1755
0.5860000000000004,586,1172,1758
0.5870000000000004,587,1174,1761
0.5880000000000004,588,1176,1764
0.5890000000000004,589,1178,1767
0.5900000000000004,590,1180,1770
0.5910000000000004,591,1182,1773
0.5920000000000004,592,1184,1776
0.5930000000000004,593,1186,1779
0.5940000000000004,594,1188,1782
0.5950000000000004,595,1190,1785
0.5960000000000004,596,1192,1788
0.5970000000000004,597,1194,1791
0.5980000000000004,598,1196,1794
0.5990000000000004,599,1198,1797
0.6000000000000004,600,1200,1800
0.6010000000000004,601,1202,1803
0.6020000000000004,602,1204,1806
0.6030000000000004,603,1206,1809
0.6040000000000004,604,1208,1812
0.6050000000000004,605,1210,1815
0.6060000000000004,606,1212,1818
0.6070000000000004,607,1214,1821
0.6080000000000004,608,1216,1824
0.6090000000000004,609,1218,1827
0.6100000000000004,610,1220,1830
0.6110000000000004,611,1222,1833
0.6120000000000004,612,1224,1836
0.6130000000000004,613,1226,1839
0.6140000000000004,614,1228,1842
0.6150000000000004,615,1230,1845
0.6160000000000004,616,1232,1848
0.6170000000000004,617,1234,1851
0.6180000000000004,618,1236,1854
0.6190000000000004,619,1238,1857
0.6200000000000004,620,1240,1860
0.6210000000000004,621,1242,1863
0.6220000000000004,622,1244,1866
0.6230000000000004,623,1246,1869
0.6240000000000004,624,1248,1872
0.6250000000000004,625,1250,1875
0.6260000000000004,626,1252,1878
0.6270000000000004,627,1254,1881
0.6280000000000004,628,1256,1884
